Data from wl_530_HR2001601__0__00300.txt Node

Date: Wed Oct 18 18:58:31 CEST 2023
User: isaza
Spectrometer: HR200160
Trigger mode: 0
Integration Time (sec): 1.000000E-1
Scans to average: 1
Electric dark correction enabled: true
Nonlinearity correction enabled: false
Boxcar width: 0
XAxis mode: Wavelengths
Number of Pixels in Spectrum: 2110
>>>>>Begin Spectral Data<<<<<
184.037	154.33
184.393	60.33
184.749	-17.67
185.104	-36.67
185.46	62.33
185.815	16.33
186.17	13.33
186.526	-42.67
186.881	-76.67
187.237	-68.67
187.592	-89.67
187.947	25.33
188.303	-160.67
188.658	23.33
189.013	89.33
189.369	-76.67
189.724	-4.67
190.079	20.33
190.435	-51.67
190.79	-102.67
191.145	-159.67
191.5	-107.67
191.855	-38.67
192.21	-124.67
192.566	-98.67
192.921	-9.67
193.276	-86.67
193.631	392.33
193.986	-67.67
194.341	-131.67
194.696	-50.67
195.051	-7.67
195.406	-122.67
195.761	343.33
196.116	-84.67
196.471	-52.67
196.826	-3.67
197.181	-58.67
197.535	-200.67
197.89	-83.67
198.245	-150.67
198.6	-96.67
198.955	-88.67
199.31	-122.67
199.664	-68.67
200.019	-201.67
200.374	-88.67
200.729	-165.67
201.083	-120.67
201.438	-42.67
201.793	-233.67
202.147	-24.67
202.502	-147.67
202.856	-64.67
203.211	-229.67
203.566	-106.67
203.92	-142.67
204.275	-142.67
204.629	-230.67
204.984	-39.67
205.338	359.33
205.693	-144.67
206.047	-142.67
206.401	-128.67
206.756	-92.67
207.11	-185.67
207.465	-177.67
207.819	116.33
208.173	-163.67
208.528	-224.67
208.882	-188.67
209.236	-100.67
209.591	-210.67
209.945	-155.67
210.299	-48.67
210.653	-93.67
211.007	-52.67
211.362	-155.67
211.716	-68.67
212.07	-141.67
212.424	-93.67
212.778	-200.67
213.132	-154.67
213.486	-132.67
213.84	-220.67
214.194	-135.67
214.548	-183.67
214.902	357.33
215.256	-249.67
215.61	-292.67
215.964	-269.67
216.318	-252.67
216.672	-113.67
217.026	-210.67
217.38	-109.67
217.734	-32.67
218.087	-179.67
218.441	-71.67
218.795	52.33
219.149	-131.67
219.503	-218.67
219.856	-150.67
220.21	-136.67
220.564	-222.67
220.917	-21.67
221.271	-254.67
221.625	-104.67
221.978	-177.67
222.332	-106.67
222.685	-110.67
223.039	312.33
223.393	-98.67
223.746	-255.67
224.1	-161.67
224.453	-263.67
224.807	-143.67
225.16	-128.67
225.514	222.33
225.867	-180.67
226.22	23.33
226.574	-114.67
226.927	-88.67
227.281	323.33
227.634	-216.67
227.987	-181.67
228.341	-156.67
228.694	-180.67
229.047	-174.67
229.4	-194.67
229.754	-253.67
230.107	-124.67
230.46	-127.67
230.813	343.33
231.166	-115.67
231.519	-150.67
231.873	-86.67
232.226	-135.67
232.579	-279.67
232.932	-189.67
233.285	-242.67
233.638	-227.67
233.991	-41.67
234.344	-186.67
234.697	-223.67
235.05	-190.67
235.403	-142.67
235.756	-130.67
236.109	-150.67
236.461	-93.67
236.814	-218.67
237.167	-188.67
237.52	147.33
237.873	-236.67
238.226	-179.67
238.578	-160.67
238.931	-153.67
239.284	-181.67
239.637	-61.67
239.989	-262.67
240.342	-157.67
240.695	-279.67
241.047	-237.67
241.4	-121.67
241.752	20.33
242.105	-233.67
242.458	-95.67
242.81	-225.67
243.163	-198.67
243.515	-229.67
243.868	-187.67
244.22	-216.67
244.573	-214.67
244.925	-145.67
245.278	-89.67
245.63	-231.67
245.982	-111.67
246.335	-167.67
246.687	-120.67
247.039	-89.67
247.392	-109.67
247.744	-159.67
248.096	-225.67
248.449	-215.67
248.801	-96.67
249.153	-37.67
249.505	-187.67
249.857	-149.67
250.21	71.33
250.562	-212.67
250.914	-164.67
251.266	-314.67
251.618	-214.67
251.97	-215.67
252.322	-201.67
252.674	-223.67
253.026	-171.67
253.378	-181.67
253.73	-132.67
254.082	-69.67
254.434	-262.67
254.786	-230.67
255.138	-250.67
255.49	-162.67
255.842	-185.67
256.194	-126.67
256.546	-235.67
256.897	-210.67
257.249	-173.67
257.601	-233.67
257.953	-149.67
258.305	-149.67
258.656	-90.67
259.008	-278.67
259.36	-125.67
259.711	-219.67
260.063	-166.67
260.415	100.33
260.766	-189.67
261.118	-165.67
261.469	-250.67
261.821	-150.67
262.173	-264.67
262.524	-315.67
262.876	73.33
263.227	-186.67
263.579	-68.67
263.93	-248.67
264.282	-163.67
264.633	-208.67
264.984	-223.67
265.336	-185.67
265.687	-21.67
266.038	-192.67
266.39	-211.67
266.741	-249.67
267.092	-264.67
267.444	-293.67
267.795	-212.67
268.146	-242.67
268.497	-179.67
268.849	-96.67
269.2	-39.67
269.551	-143.67
269.902	-243.67
270.253	-190.67
270.604	-174.67
270.955	-158.67
271.306	-166.67
271.658	-187.67
272.009	-168.67
272.36	-148.67
272.711	-284.67
273.062	-237.67
273.413	-112.67
273.763	-56.67
274.114	-157.67
274.465	-122.67
274.816	-208.67
275.167	-138.67
275.518	-292.67
275.869	-103.67
276.22	-27.67
276.57	-180.67
276.921	-106.67
277.272	-223.67
277.623	780.33
277.973	-157.67
278.324	-153.67
278.675	-62.67
279.025	-296.67
279.376	-159.67
279.727	-184.67
280.077	-153.67
280.428	-205.67
280.778	-146.67
281.129	-220.67
281.48	-320.67
281.83	-146.67
282.181	-238.67
282.531	-216.67
282.882	-261.67
283.232	-118.67
283.582	-127.67
283.933	-173.67
284.283	-291.67
284.634	-164.67
284.984	-163.67
285.334	-245.67
285.685	380.33
286.035	-169.67
286.385	-264.67
286.735	-118.67
287.086	-134.67
287.436	-119.67
287.786	-193.67
288.136	-87.67
288.486	-152.67
288.837	-243.67
289.187	98.33
289.537	-196.67
289.887	226.33
290.237	-173.67
290.587	-174.67
290.937	-147.67
291.287	-148.67
291.637	-228.67
291.987	-186.67
292.337	-224.67
292.687	-233.67
293.037	-134.67
293.387	-210.67
293.737	-111.67
294.087	-92.67
294.437	-246.67
294.786	-170.67
295.136	-241.67
295.486	-153.67
295.836	-252.67
296.186	-156.67
296.535	-223.67
296.885	-237.67
297.235	-244.67
297.584	-146.67
297.934	-142.67
298.284	-130.67
298.633	-199.67
298.983	-239.67
299.333	-162.67
299.682	-185.67
300.032	-259.67
300.381	-174.67
300.731	-207.67
301.08	-197.67
301.43	-227.67
301.779	-58.67
302.129	-178.67
302.478	-177.67
302.828	-165.67
303.177	-256.67
303.526	-207.67
303.876	-21.67
304.225	-249.67
304.574	-228.67
304.924	-271.67
305.273	-122.67
305.622	-235.67
305.971	-99.67
306.321	-189.67
306.67	-279.67
307.019	-210.67
307.368	-266.67
307.717	-271.67
308.066	262.33
308.416	-175.67
308.765	-145.67
309.114	-189.67
309.463	-256.67
309.812	-208.67
310.161	-114.67
310.51	-151.67
310.859	-275.67
311.208	-164.67
311.557	-190.67
311.906	-200.67
312.255	-191.67
312.604	-238.67
312.952	-101.67
313.301	-210.67
313.65	-92.67
313.999	-159.67
314.348	-184.67
314.696	-16.67
315.045	-175.67
315.394	-172.67
315.743	-203.67
316.091	-147.67
316.44	-194.67
316.789	-131.67
317.137	-220.67
317.486	-179.67
317.835	-249.67
318.183	484.33
318.532	-171.67
318.88	-154.67
319.229	2.33
319.577	-208.67
319.926	-115.67
320.274	-214.67
320.623	-218.67
320.971	-180.67
321.32	-196.67
321.668	-268.67
322.017	-213.67
322.365	-222.67
322.713	-192.67
323.062	-57.67
323.41	-164.67
323.758	-139.67
324.107	-169.67
324.455	-268.67
324.803	-189.67
325.151	-310.67
325.499	-217.67
325.848	-220.67
326.196	-226.67
326.544	-164.67
326.892	-161.67
327.24	-118.67
327.588	-287.67
327.936	-93.67
328.284	-141.67
328.632	-92.67
328.98	-184.67
329.328	-266.67
329.676	-16.67
330.024	-152.67
330.372	-211.67
330.72	-173.67
331.068	-139.67
331.416	-138.67
331.764	-207.67
332.112	-207.67
332.46	-121.67
332.807	-284.67
333.155	-222.67
333.503	-219.67
333.851	-27.67
334.198	-225.67
334.546	-286.67
334.894	-221.67
335.242	-226.67
335.589	-194.67
335.937	-150.67
336.285	-191.67
336.632	-256.67
336.98	-166.67
337.327	-186.67
337.675	-147.67
338.022	-278.67
338.37	-97.67
338.717	-279.67
339.065	-264.67
339.412	-201.67
339.76	58.33
340.107	-33.67
340.455	-173.67
340.802	-256.67
341.149	-204.67
341.497	-206.67
341.844	-263.67
342.191	27.33
342.539	-215.67
342.886	-189.67
343.233	-188.67
343.58	-80.67
343.928	-154.67
344.275	-174.67
344.622	-297.67
344.969	-222.67
345.316	-202.67
345.663	-263.67
346.01	-146.67
346.358	-173.67
346.705	-213.67
347.052	169.33
347.399	-97.67
347.746	-88.67
348.093	-15.67
348.44	-161.67
348.787	-167.67
349.134	-138.67
349.48	-134.67
349.827	-191.67
350.174	-292.67
350.521	-92.67
350.868	-211.67
351.215	-103.67
351.562	-131.67
351.908	-223.67
352.255	-177.67
352.602	-129.67
352.949	-178.67
353.295	-127.67
353.642	-210.67
353.989	-158.67
354.335	-223.67
354.682	-292.67
355.029	-195.67
355.375	-233.67
355.722	-167.67
356.068	-201.67
356.415	-215.67
356.761	-207.67
357.108	-162.67
357.454	-79.67
357.801	-196.67
358.147	-171.67
358.494	-165.67
358.84	-287.67
359.186	3.33
359.533	-139.67
359.879	-223.67
360.225	-181.67
360.572	-196.67
360.918	-144.67
361.264	-183.67
361.611	-224.67
361.957	-157.67
362.303	-78.67
362.649	-228.67
362.995	-195.67
363.342	-173.67
363.688	-70.67
364.034	-183.67
364.38	-293.67
364.726	-158.67
365.072	-230.67
365.418	-148.67
365.764	-176.67
366.11	-179.67
366.456	-179.67
366.802	-173.67
367.148	-249.67
367.494	-279.67
367.84	245.33
368.186	-265.67
368.532	-192.67
368.878	-150.67
369.224	-207.67
369.569	-95.67
369.915	-256.67
370.261	-278.67
370.607	-198.67
370.952	-257.67
371.298	-300.67
371.644	-225.67
371.99	-211.67
372.335	196.33
372.681	-184.67
373.027	-197.67
373.372	-78.67
373.718	-122.67
374.063	-87.67
374.409	-55.67
374.754	-197.67
375.1	-167.67
375.445	-174.67
375.791	-138.67
376.136	-168.67
376.482	-106.67
376.827	-150.67
377.173	-183.67
377.518	-131.67
377.863	-198.67
378.209	-218.67
378.554	-224.67
378.899	-136.67
379.245	-107.67
379.59	-242.67
379.935	-182.67
380.281	-169.67
380.626	-180.67
380.971	-101.67
381.316	-219.67
381.661	-265.67
382.006	-243.67
382.352	-180.67
382.697	-229.67
383.042	-157.67
383.387	-213.67
383.732	-238.67
384.077	-166.67
384.422	-258.67
384.767	-217.67
385.112	-174.67
385.457	-191.67
385.802	-204.67
386.147	-117.67
386.492	-252.67
386.836	-134.67
387.181	-240.67
387.526	1.33
387.871	-122.67
388.216	-151.67
388.561	-97.67
388.905	-85.67
389.25	-143.67
389.595	-165.67
389.94	-192.67
390.284	-69.67
390.629	-37.67
390.974	-157.67
391.318	-43.67
391.663	-145.67
392.007	-87.67
392.352	-193.67
392.697	-194.67
393.041	-201.67
393.386	-216.67
393.73	-261.67
394.075	-144.67
394.419	-210.67
394.763	-193.67
395.108	-236.67
395.452	-200.67
395.797	-99.67
396.141	-196.67
396.485	-190.67
396.83	-251.67
397.174	-157.67
397.518	-225.67
397.863	171.33
398.207	-198.67
398.551	-152.67
398.895	-230.67
399.24	-32.67
399.584	-210.67
399.928	-244.67
400.272	-210.67
400.616	-237.67
400.96	-140.67
401.304	-215.67
401.648	-113.67
401.992	-97.67
402.336	-201.67
402.68	-194.67
403.024	488.33
403.368	-181.67
403.712	-185.67
404.056	-224.67
404.4	-218.67
404.744	-135.67
405.088	95.33
405.432	-219.67
405.776	-285.67
406.119	-145.67
406.463	-148.67
406.807	-178.67
407.151	280.33
407.495	-174.67
407.838	-236.67
408.182	-115.67
408.526	479.33
408.869	-98.67
409.213	-148.67
409.557	-213.67
409.9	-237.67
410.244	-194.67
410.587	-217.67
410.931	-155.67
411.274	-237.67
411.618	-101.67
411.961	-147.67
412.305	-72.67
412.648	-200.67
412.992	-91.67
413.335	-175.67
413.679	-218.67
414.022	-17.67
414.365	-86.67
414.709	-169.67
415.052	-205.67
415.395	-216.67
415.739	-303.67
416.082	-326.67
416.425	-279.67
416.768	76.33
417.112	-177.67
417.455	-198.67
417.798	-161.67
418.141	-165.67
418.484	-161.67
418.827	-281.67
419.17	178.33
419.513	-201.67
419.857	-196.67
420.2	-232.67
420.543	-227.67
420.886	-194.67
421.229	-137.67
421.572	-149.67
421.914	-287.67
422.257	-259.67
422.6	-197.67
422.943	350.33
423.286	-181.67
423.629	-171.67
423.972	-205.67
424.315	-148.67
424.657	-147.67
425	-219.67
425.343	-216.67
425.686	-189.67
426.028	-220.67
426.371	-221.67
426.714	-119.67
427.056	-150.67
427.399	-168.67
427.742	-119.67
428.084	-153.67
428.427	-184.67
428.769	-174.67
429.112	-239.67
429.454	-242.67
429.797	-298.67
430.139	-225.67
430.482	-202.67
430.824	-84.67
431.167	-160.67
431.509	-270.67
431.851	-235.67
432.194	-119.67
432.536	-170.67
432.878	-56.67
433.221	234.33
433.563	-52.67
433.905	-126.67
434.248	-112.67
434.59	-154.67
434.932	-193.67
435.274	-75.67
435.616	-244.67
435.959	-84.67
436.301	-179.67
436.643	-330.67
436.985	-241.67
437.327	-246.67
437.669	-329.67
438.011	-160.67
438.353	-55.67
438.695	-227.67
439.037	-195.67
439.379	-200.67
439.721	-286.67
440.063	-250.67
440.405	-246.67
440.747	-264.67
441.089	-154.67
441.43	-310.67
441.772	-150.67
442.114	-201.67
442.456	-177.67
442.798	-215.67
443.139	-279.67
443.481	-209.67
443.823	413.33
444.165	-219.67
444.506	-255.67
444.848	-231.67
445.19	-131.67
445.531	-135.67
445.873	-207.67
446.214	-171.67
446.556	-224.67
446.897	-143.67
447.239	-192.67
447.58	-230.67
447.922	-168.67
448.263	322.33
448.605	-180.67
448.946	-212.67
449.288	-236.67
449.629	-228.67
449.97	-242.67
450.312	-244.67
450.653	-178.67
450.994	-88.67
451.336	-192.67
451.677	-144.67
452.018	-220.67
452.359	-302.67
452.701	-198.67
453.042	-314.67
453.383	-214.67
453.724	-279.67
454.065	-240.67
454.406	-212.67
454.748	-264.67
455.089	-297.67
455.43	-171.67
455.771	-17.67
456.112	-160.67
456.453	-283.67
456.794	-192.67
457.135	-125.67
457.476	-258.67
457.817	-231.67
458.158	-185.67
458.498	-167.67
458.839	-236.67
459.18	-254.67
459.521	-94.67
459.862	-54.67
460.203	-157.67
460.543	183.33
460.884	-234.67
461.225	182.33
461.566	-204.67
461.906	-104.67
462.247	-149.67
462.588	-266.67
462.928	87.33
463.269	-148.67
463.609	-256.67
463.95	-170.67
464.291	-235.67
464.631	-267.67
464.972	-154.67
465.312	-134.67
465.653	-155.67
465.993	-205.67
466.333	-33.67
466.674	-172.67
467.014	-162.67
467.355	-183.67
467.695	-209.67
468.035	-216.67
468.376	-6.67
468.716	-176.67
469.056	-95.67
469.397	-174.67
469.737	-269.67
470.077	-221.67
470.417	-210.67
470.757	-266.67
471.098	-187.67
471.438	-242.67
471.778	-256.67
472.118	554.33
472.458	-112.67
472.798	-217.67
473.138	-186.67
473.478	-239.67
473.818	-130.67
474.158	-185.67
474.498	-184.67
474.838	-95.67
475.178	-256.67
475.518	-169.67
475.858	-192.67
476.198	-134.67
476.538	-109.67
476.878	-172.67
477.217	-134.67
477.557	102.33
477.897	-333.67
478.237	-70.67
478.577	-277.67
478.916	-141.67
479.256	-213.67
479.596	-186.67
479.935	-247.67
480.275	-216.67
480.615	196.33
480.954	-50.67
481.294	-237.67
481.633	-137.67
481.973	-159.67
482.313	-205.67
482.652	-142.67
482.992	-200.67
483.331	-128.67
483.67	-185.67
484.01	576.33
484.349	-196.67
484.689	-129.67
485.028	-160.67
485.367	90.33
485.707	-202.67
486.046	-240.67
486.385	-185.67
486.725	-145.67
487.064	-170.67
487.403	-179.67
487.742	-239.67
488.082	-182.67
488.421	-109.67
488.76	-141.67
489.099	-120.67
489.438	-180.67
489.777	-33.67
490.116	-191.67
490.456	-148.67
490.795	25.33
491.134	-279.67
491.473	-179.67
491.812	-215.67
492.151	-230.67
492.49	-317.67
492.828	-210.67
493.167	-124.67
493.506	-161.67
493.845	-271.67
494.184	-102.67
494.523	-104.67
494.862	-220.67
495.2	-137.67
495.539	-174.67
495.878	-202.67
496.217	-177.67
496.555	-187.67
496.894	-178.67
497.233	-142.67
497.571	-118.67
497.91	-207.67
498.249	-252.67
498.587	-239.67
498.926	-245.67
499.264	-129.67
499.603	-194.67
499.942	513.33
500.28	-222.67
500.619	-174.67
500.957	-238.67
501.295	-270.67
501.634	-143.67
501.972	-239.67
502.311	-188.67
502.649	-242.67
502.987	-185.67
503.326	591.33
503.664	-255.67
504.002	-192.67
504.341	-79.67
504.679	-180.67
505.017	-164.67
505.355	-183.67
505.693	-61.67
506.032	74.33
506.37	-209.67
506.708	-275.67
507.046	-168.67
507.384	-206.67
507.722	-238.67
508.06	-78.67
508.398	-236.67
508.736	-192.67
509.074	0.33
509.412	-182.67
509.75	-248.67
510.088	-105.67
510.426	-176.67
510.764	-41.67
511.102	-83.67
511.44	-147.67
511.778	-202.67
512.115	-143.67
512.453	-222.67
512.791	-193.67
513.129	-26.67
513.466	-242.67
513.804	-99.67
514.142	-154.67
514.48	-198.67
514.817	-182.67
515.155	-186.67
515.493	-264.67
515.83	-159.67
516.168	-110.67
516.505	-168.67
516.843	-146.67
517.18	-216.67
517.518	-144.67
517.855	-160.67
518.193	-175.67
518.53	-196.67
518.868	-154.67
519.205	-159.67
519.542	-235.67
519.88	-154.67
520.217	-167.67
520.555	-264.67
520.892	-238.67
521.229	-210.67
521.566	-259.67
521.904	-93.67
522.241	-216.67
522.578	-247.67
522.915	-140.67
523.252	-159.67
523.59	-111.67
523.927	-163.67
524.264	-115.67
524.601	-180.67
524.938	-95.67
525.275	-81.67
525.612	-58.67
525.949	15.33
526.286	-135.67
526.623	-49.67
526.96	88.33
527.297	305.33
527.634	809.33
527.971	1614.33
528.308	3053.33
528.645	5033.33
528.981	7485.33
529.318	10961.33
529.655	14610.33
529.992	17905.33
530.329	20629.33
530.665	21140.33
531.002	20917.33
531.339	19992.33
531.675	16698.33
532.012	13364.33
532.349	9808.33
532.685	6905.33
533.022	4213.33
533.359	2505.33
533.695	1326.33
534.032	571.33
534.368	126.33
534.705	60.33
535.041	-90.67
535.378	-219.67
535.714	-93.67
536.051	103.33
536.387	-166.67
536.723	-229.67
537.06	-223.67
537.396	-192.67
537.732	-124.67
538.069	-308.67
538.405	-141.67
538.741	-135.67
539.078	-162.67
539.414	-91.67
539.75	-122.67
540.086	-191.67
540.422	-195.67
540.759	-187.67
541.095	-209.67
541.431	-160.67
541.767	-209.67
542.103	-186.67
542.439	-181.67
542.775	-187.67
543.111	-199.67
543.447	-88.67
543.783	-188.67
544.119	-194.67
544.455	-119.67
544.791	-140.67
545.127	-179.67
545.463	-16.67
545.799	-81.67
546.134	-206.67
546.47	-302.67
546.806	-245.67
547.142	-185.67
547.477	-170.67
547.813	-175.67
548.149	-51.67
548.485	-214.67
548.82	-141.67
549.156	370.33
549.492	-79.67
549.827	25.33
550.163	-207.67
550.498	-133.67
550.834	-200.67
551.17	345.33
551.505	-270.67
551.841	-169.67
552.176	-190.67
552.512	-207.67
552.847	-230.67
553.182	232.33
553.518	-138.67
553.853	-264.67
554.189	-167.67
554.524	-149.67
554.859	-164.67
555.195	-153.67
555.53	-225.67
555.865	-153.67
556.2	-166.67
556.536	-142.67
556.871	-186.67
557.206	-277.67
557.541	-256.67
557.876	-144.67
558.211	-139.67
558.547	-190.67
558.882	-172.67
559.217	-82.67
559.552	-153.67
559.887	-63.67
560.222	-203.67
560.557	-130.67
560.892	-183.67
561.227	-177.67
561.562	-166.67
561.897	-120.67
562.231	-228.67
562.566	-122.67
562.901	-165.67
563.236	-148.67
563.571	-112.67
563.906	-159.67
564.24	-219.67
564.575	-155.67
564.91	-211.67
565.245	-81.67
565.579	-217.67
565.914	-161.67
566.249	105.33
566.583	-167.67
566.918	-260.67
567.252	-185.67
567.587	-202.67
567.922	-266.67
568.256	-278.67
568.591	-145.67
568.925	-84.67
569.26	-33.67
569.594	-91.67
569.928	-53.67
570.263	-168.67
570.597	-95.67
570.932	-125.67
571.266	-166.67
571.6	-114.67
571.935	-259.67
572.269	-176.67
572.603	-165.67
572.937	-144.67
573.272	-29.67
573.606	-180.67
573.94	-161.67
574.274	-245.67
574.608	-26.67
574.943	-141.67
575.277	-225.67
575.611	-131.67
575.945	-199.67
576.279	-178.67
576.613	-92.67
576.947	-233.67
577.281	-152.67
577.615	-247.67
577.949	-220.67
578.283	-119.67
578.617	-98.67
578.951	-147.67
579.285	-100.67
579.618	-158.67
579.952	-210.67
580.286	-150.67
580.62	-64.67
580.954	-207.67
581.287	-100.67
581.621	-166.67
581.955	-125.67
582.289	-162.67
582.622	-120.67
582.956	-158.67
583.29	-234.67
583.623	-240.67
583.957	-141.67
584.29	-187.67
584.624	-242.67
584.957	-142.67
585.291	-207.67
585.625	-148.67
585.958	-146.67
586.291	-180.67
586.625	-127.67
586.958	-119.67
587.292	10.33
587.625	-110.67
587.958	483.33
588.292	-170.67
588.625	-97.67
588.958	-177.67
589.292	-245.67
589.625	-223.67
589.958	-130.67
590.291	-197.67
590.625	-306.67
590.958	-78.67
591.291	-133.67
591.624	-192.67
591.957	-125.67
592.29	-157.67
592.623	-198.67
592.957	-242.67
593.29	-8.67
593.623	-183.67
593.956	-203.67
594.289	-75.67
594.622	-189.67
594.954	-161.67
595.287	-216.67
595.62	-107.67
595.953	-108.67
596.286	-105.67
596.619	-154.67
596.952	-143.67
597.285	-216.67
597.617	-97.67
597.95	-148.67
598.283	-198.67
598.616	-177.67
598.948	-107.67
599.281	-144.67
599.614	-251.67
599.946	-223.67
600.279	-248.67
600.611	-13.67
600.944	-152.67
601.277	-185.67
601.609	-244.67
601.942	-24.67
602.274	-209.67
602.607	-151.67
602.939	-129.67
603.272	-235.67
603.604	-108.67
603.936	27.33
604.269	-238.67
604.601	-217.67
604.933	-122.67
605.266	-164.67
605.598	-154.67
605.93	-123.67
606.263	-94.67
606.595	-45.67
606.927	-156.67
607.259	-96.67
607.592	-128.67
607.924	-229.67
608.256	-208.67
608.588	-47.67
608.92	-91.67
609.252	-84.67
609.584	-130.67
609.916	-217.67
610.248	-189.67
610.58	-160.67
610.912	-190.67
611.244	-238.67
611.576	-259.67
611.908	-245.67
612.24	-93.67
612.572	-219.67
612.904	-114.67
613.236	-266.67
613.567	-138.67
613.899	295.33
614.231	-109.67
614.563	-168.67
614.895	-161.67
615.226	-140.67
615.558	-108.67
615.89	-208.67
616.221	-221.67
616.553	-190.67
616.885	-143.67
617.216	-182.67
617.548	-187.67
617.879	-165.67
618.211	-213.67
618.542	-238.67
618.874	-124.67
619.205	-153.67
619.537	-216.67
619.868	-279.67
620.2	-126.67
620.531	-194.67
620.862	-264.67
621.194	-149.67
621.525	-226.67
621.857	-171.67
622.188	-142.67
622.519	-104.67
622.85	-2.67
623.182	-187.67
623.513	-68.67
623.844	-104.67
624.175	-239.67
624.506	-176.67
624.838	-258.67
625.169	-205.67
625.5	-242.67
625.831	39.33
626.162	-236.67
626.493	-209.67
626.824	-235.67
627.155	-215.67
627.486	-122.67
627.817	-147.67
628.148	-109.67
628.479	-227.67
628.81	-154.67
629.141	-253.67
629.471	-160.67
629.802	-104.67
630.133	-149.67
630.464	-77.67
630.795	-244.67
631.125	-182.67
631.456	-98.67
631.787	-122.67
632.118	-34.67
632.448	-118.67
632.779	-214.67
633.11	-173.67
633.44	-180.67
633.771	-136.67
634.101	5.33
634.432	-115.67
634.762	-118.67
635.093	-152.67
635.423	-78.67
635.754	-181.67
636.084	-68.67
636.415	-139.67
636.745	-227.67
637.076	-111.67
637.406	-183.67
637.736	-135.67
638.067	-267.67
638.397	-154.67
638.727	-247.67
639.058	-116.67
639.388	-165.67
639.718	-195.67
640.048	-45.67
640.378	-152.67
640.709	-182.67
641.039	-84.67
641.369	-157.67
641.699	-162.67
642.029	75.33
642.359	-145.67
642.689	-257.67
643.019	-214.67
643.349	5.33
643.679	-58.67
644.009	-111.67
644.339	-215.67
644.669	-98.67
644.999	-179.67
645.329	-116.67
645.659	-143.67
645.989	-206.67
646.319	-174.67
646.648	95.33
646.978	-62.67
647.308	-85.67
647.638	-115.67
647.967	-170.67
648.297	-176.67
648.627	-291.67
648.956	-214.67
649.286	-166.67
649.616	-237.67
649.945	-134.67
650.275	-184.67
650.604	-107.67
650.934	-116.67
651.264	-247.67
651.593	-170.67
651.923	-191.67
652.252	228.33
652.581	-206.67
652.911	-194.67
653.24	-192.67
653.57	-166.67
653.899	-175.67
654.228	900.33
654.558	-159.67
654.887	-164.67
655.216	-129.67
655.546	-154.67
655.875	-161.67
656.204	-165.67
656.533	-63.67
656.862	-126.67
657.192	-164.67
657.521	-219.67
657.85	-175.67
658.179	-146.67
658.508	-233.67
658.837	-184.67
659.166	-76.67
659.495	-159.67
659.824	-188.67
660.153	-222.67
660.482	-193.67
660.811	-208.67
661.14	-218.67
661.469	-255.67
661.798	-112.67
662.127	-214.67
662.455	-64.67
662.784	-174.67
663.113	28.33
663.442	-157.67
663.771	0.33
664.099	-167.67
664.428	-193.67
664.757	-138.67
665.085	-94.67
665.414	-182.67
665.743	-224.67
666.071	-112.67
666.4	-203.67
666.729	-188.67
667.057	-117.67
667.386	-71.67
667.714	-255.67
668.043	-109.67
668.371	-183.67
668.7	-143.67
669.028	-118.67
669.356	-131.67
669.685	-169.67
670.013	-217.67
670.342	534.33
670.67	-95.67
670.998	-134.67
671.326	-200.67
671.655	-216.67
671.983	-163.67
672.311	-221.67
672.639	-145.67
672.968	-173.67
673.296	-175.67
673.624	-162.67
673.952	-233.67
674.28	-258.67
674.608	-200.67
674.936	-148.67
675.264	-117.67
675.592	-187.67
675.92	-159.67
676.248	-309.67
676.576	176.33
676.904	-125.67
677.232	-180.67
677.56	31.33
677.888	-81.67
678.216	-249.67
678.544	-158.67
678.872	-274.67
679.199	-225.67
679.527	-210.67
679.855	-212.67
680.183	-161.67
680.51	-143.67
680.838	-110.67
681.166	-166.67
681.493	-106.67
681.821	-212.67
682.149	-129.67
682.476	-289.67
682.804	-186.67
683.131	-234.67
683.459	-170.67
683.786	-238.67
684.114	-177.67
684.441	-289.67
684.769	-138.67
685.096	602.33
685.424	-203.67
685.751	-184.67
686.078	-102.67
686.406	-162.67
686.733	-225.67
687.06	-288.67
687.388	-273.67
687.715	-164.67
688.042	-191.67
688.369	-157.67
688.697	-168.67
689.024	-172.67
689.351	-156.67
689.678	-162.67
690.005	-179.67
690.332	-180.67
690.66	-165.67
690.987	-158.67
691.314	-19.67
691.641	-197.67
691.968	-227.67
692.295	-185.67
692.622	-92.67
692.949	289.33
693.276	-80.67
693.602	-162.67
693.929	-150.67
694.256	-76.67
694.583	-100.67
694.91	-200.67
695.237	-121.67
695.563	-126.67
695.89	-113.67
696.217	-127.67
696.544	-291.67
696.87	-183.67
697.197	-127.67
697.524	-151.67
697.85	-65.67
698.177	-194.67
698.504	-182.67
698.83	-228.67
699.157	-189.67
699.483	-228.67
699.81	-81.67
700.136	-109.67
700.463	-231.67
700.789	-77.67
701.116	-215.67
701.442	-103.67
701.768	-158.67
702.095	-182.67
702.421	-185.67
702.747	-104.67
703.074	-148.67
703.4	-261.67
703.726	-179.67
704.053	-173.67
704.379	-123.67
704.705	-153.67
705.031	-118.67
705.357	-63.67
705.683	-176.67
706.01	-196.67
706.336	-123.67
706.662	-242.67
706.988	-152.67
707.314	-186.67
707.64	-90.67
707.966	-55.67
708.292	-139.67
708.618	-181.67
708.944	-110.67
709.27	-37.67
709.596	-214.67
709.922	-90.67
710.247	-181.67
710.573	-75.67
710.899	-86.67
711.225	-177.67
711.551	33.33
711.876	-219.67
712.202	-164.67
712.528	-138.67
712.854	-191.67
713.179	209.33
713.505	-175.67
713.83	537.33
714.156	-46.67
714.482	-123.67
714.807	-207.67
715.133	-252.67
715.458	-91.67
715.784	-181.67
716.109	-118.67
716.435	-241.67
716.76	-222.67
717.086	-99.67
717.411	-123.67
717.736	-43.67
718.062	-118.67
718.387	-221.67
718.712	-203.67
719.038	-194.67
719.363	-161.67
719.688	-133.67
720.014	-138.67
720.339	-180.67
720.664	-109.67
720.989	-192.67
721.314	334.33
721.639	-262.67
721.965	-127.67
722.29	-102.67
722.615	-154.67
722.94	-190.67
723.265	-155.67
723.59	-65.67
723.915	726.33
724.24	-123.67
724.565	-244.67
724.89	-220.67
725.215	-240.67
725.54	-128.67
725.864	-194.67
726.189	-167.67
726.514	-61.67
726.839	-99.67
727.164	-138.67
727.488	147.33
727.813	-208.67
728.138	-115.67
728.463	-61.67
728.787	-185.67
729.112	-128.67
729.437	-161.67
729.761	-280.67
730.086	-184.67
730.41	-203.67
730.735	-211.67
731.06	-228.67
731.384	-195.67
731.709	-279.67
732.033	-209.67
732.358	-189.67
732.682	-161.67
733.006	-200.67
733.331	-150.67
733.655	-155.67
733.98	-191.67
734.304	-186.67
734.628	-129.67
734.952	-78.67
735.277	-233.67
735.601	-170.67
735.925	-202.67
736.249	-235.67
736.574	-196.67
736.898	-201.67
737.222	-113.67
737.546	-124.67
737.87	-175.67
738.194	-147.67
738.518	-194.67
738.842	-68.67
739.166	-124.67
739.49	-223.67
739.814	-108.67
740.138	-137.67
740.462	-64.67
740.786	-118.67
741.11	-200.67
741.434	-173.67
741.758	-144.67
742.082	-279.67
742.406	-202.67
742.729	-123.67
743.053	-251.67
743.377	-187.67
743.701	-239.67
744.024	142.33
744.348	-211.67
744.672	-118.67
744.995	-235.67
745.319	-147.67
745.643	-133.67
745.966	-177.67
746.29	331.33
746.613	256.33
746.937	-119.67
747.26	-125.67
747.584	-87.67
747.907	-174.67
748.231	-68.67
748.554	-108.67
748.878	-225.67
749.201	-189.67
749.524	-207.67
749.848	-181.67
750.171	-191.67
750.494	-184.67
750.818	71.33
751.141	-235.67
751.464	-65.67
751.787	-165.67
752.11	-176.67
752.434	-199.67
752.757	-81.67
753.08	-207.67
753.403	-233.67
753.726	-113.67
754.049	-179.67
754.372	-235.67
754.695	-151.67
755.018	-195.67
755.341	-189.67
755.664	-166.67
755.987	-195.67
756.31	-193.67
756.633	-165.67
756.956	-178.67
757.279	-154.67
757.602	-160.67
757.924	-261.67
758.247	-82.67
758.57	-39.67
758.893	-262.67
759.215	-18.67
759.538	-124.67
759.861	-202.67
760.184	-221.67
760.506	-262.67
760.829	-238.67
761.151	-157.67
761.474	-245.67
761.797	-255.67
762.119	-109.67
762.442	-86.67
762.764	-98.67
763.087	-220.67
763.409	-112.67
763.732	-141.67
764.054	-81.67
764.376	-64.67
764.699	-165.67
765.021	-268.67
765.344	-151.67
765.666	-76.67
765.988	-132.67
766.31	67.33
766.633	-190.67
766.955	-142.67
767.277	-150.67
767.599	-192.67
767.922	-137.67
768.244	-23.67
768.566	-30.67
768.888	-130.67
769.21	-255.67
769.532	-170.67
769.854	-31.67
770.176	-102.67
770.498	-128.67
770.82	-173.67
771.142	-91.67
771.464	-124.67
771.786	-129.67
772.108	152.33
772.43	-201.67
772.752	-224.67
773.074	-204.67
773.395	-38.67
773.717	-258.67
774.039	-189.67
774.361	301.33
774.683	-139.67
775.004	-144.67
775.326	-184.67
775.648	-141.67
775.969	-241.67
776.291	-78.67
776.613	-137.67
776.934	-199.67
777.256	-165.67
777.577	-111.67
777.899	-233.67
778.22	-183.67
778.542	-161.67
778.863	-95.67
779.185	-112.67
779.506	-185.67
779.827	-151.67
780.149	-186.67
780.47	-119.67
780.792	423.33
781.113	-196.67
781.434	-167.67
781.755	-128.67
782.077	-95.67
782.398	-99.67
782.719	-21.67
783.04	-118.67
783.362	-204.67
783.683	-144.67
784.004	-70.67
784.325	-119.67
784.646	-99.67
784.967	-108.67
785.288	-162.67
785.609	-45.67
785.93	-182.67
786.251	-161.67
786.572	-249.67
786.893	25.33
787.214	-63.67
787.535	-128.67
787.856	-160.67
788.177	-44.67
788.498	-153.67
788.818	-128.67
789.139	-75.67
789.46	-132.67
789.781	-145.67
790.101	-18.67
790.422	-122.67
790.743	-186.67
791.064	-133.67
791.384	-94.67
791.705	-60.67
792.025	-172.67
792.346	-65.67
792.667	-138.67
792.987	-150.67
793.308	-275.67
793.628	-117.67
793.949	-198.67
794.269	-61.67
794.59	-131.67
794.91	-123.67
795.23	-141.67
795.551	-190.67
795.871	-208.67
796.191	-137.67
796.512	-125.67
796.832	-138.67
797.152	-134.67
797.473	74.33
797.793	-58.67
798.113	-114.67
798.433	783.33
798.753	-167.67
799.074	-177.67
799.394	-91.67
799.714	-123.67
800.034	-219.67
800.354	-167.67
800.674	-144.67
800.994	-50.67
801.314	-103.67
801.634	-137.67
801.954	-115.67
802.274	-90.67
802.594	-94.67
802.914	-111.67
803.234	-115.67
803.553	-192.67
803.873	-115.67
804.193	-219.67
804.513	-67.67
804.833	-142.67
805.152	-126.67
805.472	-111.67
805.792	374.33
806.112	-235.67
806.431	-168.67
806.751	-146.67
807.07	-200.67
807.39	621.33
807.71	-45.67
808.029	-136.67
808.349	-87.67
808.668	-109.67
808.988	-117.67
809.307	-157.67
809.627	-104.67
809.946	-214.67
810.266	-124.67
810.585	-110.67
810.904	-140.67
811.224	-222.67
811.543	-178.67
811.862	-126.67
812.182	-174.67
812.501	-103.67
812.82	-169.67
813.139	-152.67
813.459	-167.67
813.778	-165.67
814.097	-172.67
814.416	-138.67
814.735	-42.67
815.054	-69.67
815.373	36.33
815.692	-73.67
816.011	-146.67
816.33	-61.67
816.649	-58.67
816.968	-86.67
817.287	-165.67
817.606	-87.67
817.925	-131.67
818.244	291.33
818.563	-118.67
818.882	-185.67
819.201	6.33
819.519	-147.67
819.838	-13.67
820.157	153.33
820.476	533.33
820.794	-149.67
821.113	53.33
821.432	-58.67
821.75	-183.67
822.069	-102.67
822.388	-126.67
822.706	32.33
823.025	-146.67
823.343	-141.67
823.662	-112.67
823.98	-165.67
824.299	-91.67
824.617	-158.67
824.936	-24.67
825.254	-63.67
825.573	-91.67
825.891	54.33
826.209	-162.67
826.528	-39.67
826.846	-61.67
827.164	-19.67
827.483	-72.67
827.801	-32.67
828.119	-114.67
828.437	-54.67
828.755	-111.67
829.074	-81.67
829.392	10.33
829.71	21.33
830.028	2.33
830.346	-16.67
830.664	-12.67
830.982	-35.67
831.3	-44.67
831.618	-34.67
831.936	12.33
832.254	-39.67
832.572	12.33
832.89	-72.67
833.208	-91.67
833.526	-60.67
833.844	-111.67
834.161	-36.67
834.479	-45.67
834.797	-59.67
835.115	31.33
835.433	-0.67
835.75	53.33
836.068	-49.67
836.386	-31.67
836.703	-69.67
837.021	26.33
837.339	-75.67
837.656	-4.67
837.974	-72.67
838.291	0.33
838.609	58.33
838.926	-23.67
839.244	-18.67
839.561	-59.67
839.879	37.33
840.196	55.33
840.514	22.33
840.831	-92.67
841.148	1.33
841.466	-63.67
841.783	13.33
842.1	189.33
842.418	63.33
842.735	-83.67
843.052	12.33
843.369	-115.67
843.687	74.33
844.004	61.33
844.321	-109.67
844.638	-31.67
844.955	-50.67
845.272	-78.67
845.589	-11.67
845.906	-22.67
846.223	93.33
846.54	-56.67
846.857	-90.67
847.174	-36.67
847.491	-56.67
847.808	-38.67
848.125	-60.67
848.442	-25.67
848.759	-50.67
849.076	72.33
849.392	82.33
849.709	-75.67
850.026	-70.67
850.343	-39.67
850.659	-84.67
850.976	24.33
851.293	4.33
851.609	89.33
851.926	-48.67
852.243	-53.67
852.559	-45.67
852.876	-129.67
853.192	64.33
853.509	-6.67
853.826	-54.67
854.142	-38.67
854.458	-105.67
854.775	-75.67
855.091	-65.67
855.408	-96.67
855.724	-76.67
856.041	-51.67
856.357	-4.67
856.673	346.33
856.989	-2.67
857.306	21.33
857.622	-25.67
857.938	-123.67
858.254	-115.67
858.571	12.33
858.887	-99.67
859.203	-43.67
859.519	-0.67
859.835	-74.67
860.151	34.33
860.467	-41.67
860.783	-4.67
861.099	-100.67
861.415	-106.67
861.731	10.33
862.047	-67.67
862.363	-70.67
862.679	-82.67
862.995	41.33
863.311	-87.67
863.627	-8.67
863.943	-27.67
864.259	-14.67
864.574	-83.67
864.89	-46.67
865.206	-99.67
865.522	-50.67
865.837	-53.67
866.153	-79.67
866.469	3.33
866.784	-22.67
867.1	62.33
867.415	3.33
867.731	-31.67
868.047	124.33
868.362	381.33
868.678	169.33
868.993	-12.67
869.309	44.33
869.624	-9.67
869.939	20.33
870.255	13.33
870.57	124.33
870.886	-100.67
871.201	-4.67
871.516	-63.67
871.832	27.33
872.147	27.33
872.462	-10.67
872.777	-55.67
873.093	-76.67
873.408	84.33
873.723	-83.67
874.038	47.33
874.353	16.33
874.668	52.33
874.983	-16.67
875.298	68.33
875.614	17.33
875.929	51.33
876.244	12.33
876.559	-2.67
876.873	391.33
877.188	-44.67
877.503	15.33
877.818	-88.67
878.133	14.33
878.448	41.33
878.763	163.33
879.078	0.33
879.392	-50.67
879.707	45.33
880.022	36.33
880.337	67.33
880.651	-46.67
880.966	46.33
881.281	110.33
881.595	92.33
881.91	46.33
882.224	46.33
882.539	78.33
882.854	-5.67
883.168	119.33
883.483	102.33
883.797	107.33
884.112	38.33
884.426	164.33
884.74	192.33
885.055	93.33
885.369	31.33
885.684	22.33
885.998	31.33
886.312	162.33
886.626	97.33
886.941	140.33
887.255	14.33
887.569	143.33
887.883	23.33
888.198	130.33
888.512	46.33
888.826	120.33
889.14	128.33
889.454	1.33
889.768	120.33
890.082	198.33
890.396	138.33
890.71	255.33
891.024	157.33
891.338	120.33
